0.00005 0
0.00015	0
0.00025	0
0.00035	0
0.00045	0
0.00055	0
0.00065	0
0.00075	0
0.00085	0
0.00095	13
0.00105	279
0.00115	229
0.00125	210
0.00135	190
0.00145	191
0.00155	192
0.00165	190
0.00175	160
0.00185	153
0.00195	154
0.00205	124
0.00215	111
0.00225	135
0.00235	98
0.00245	124
0.00255	96
0.00265	2792
0.00275	124
0.00285	1059
0.00295	21368
0.00305	89
0.00315	13363
0.00325	1249
0.00335	1949
0.00345	204
0.00355	1318
0.00365	77
0.00375	352
0.00385	89
0.00395	73
0.00405	56
0.00415	54
0.00425	61
0.00435	58
0.00445	59
0.00455	66
0.00465	70
0.00475	48
0.00485	54
0.00495	54
0.00505	57
0.00515	53
0.00525	40
0.00535	41
0.00545	31
0.00555	43
0.00565	34
0.00575	51
0.00585	43
0.00595	39
0.00605	30
0.00615	32
0.00625	37
0.00635	61
0.00645	46
0.00655	34
0.00665	33
0.00675	39
0.00685	30
0.00695	30
0.00705	32
0.00715	21
0.00725	31
0.00735	32
0.00745	36
0.00755	31
0.00765	38
0.00775	24
0.00785	23
0.00795	37
0.00805	23
0.00815	30
0.00825	31
0.00835	24
0.00845	31
0.00855	22
0.00865	34
0.00875	21
0.00885	30
0.00895	27
0.00905	25
0.00915	17
0.00925	22
0.00935	18
0.00945	28
0.00955	26
0.00965	12
0.00975	21
0.00985	25
0.00995	16
0.01005	15
0.01015	26
0.01025	17
0.01035	7
0.01045	20
0.01055	19
0.01065	18
0.01075	13
0.01085	10
0.01095	20
0.01105	23
0.01115	23
0.01125	21
0.01135	21
0.01145	13
0.01155	21
0.01165	10
0.01175	25
0.01185	17
0.01195	13
0.01205	14
0.01215	18
0.01225	18
0.01235	13
0.01245	13
0.01255	18
0.01265	13
0.01275	16
0.01285	8
0.01295	10
0.01305	12
0.01315	12
0.01325	18
0.01335	17
0.01345	16
0.01355	5
0.01365	16
0.01375	22
0.01385	15
0.01395	10
0.01405	11
0.01415	8
0.01425	8
0.01435	12
0.01445	4
0.01455	14
0.01465	9
0.01475	13
0.01485	12
0.01495	10
0.01505	16
0.01515	11
0.01525	8
0.01535	11
0.01545	12
0.01555	8
0.01565	4
0.01575	12
0.01585	9
0.01595	8
0.01605	13
0.01615	9
0.01625	12
0.01635	10
0.01645	13
0.01655	11
0.01665	6
0.01675	9
0.01685	10
0.01695	11
0.01705	9
0.01715	10
0.01725	13
0.01735	6
0.01745	6
0.01755	8
0.01765	6
0.01775	5
0.01785	6
0.01795	5
0.01805	6
0.01815	9
0.01825	10
0.01835	3
0.01845	8
0.01855	9
0.01865	5
0.01875	7
0.01885	2
0.01895	10
0.01905	3
0.01915	6
0.01925	4
0.01935	6
0.01945	3
0.01955	7
0.01965	5
0.01975	8
0.01985	6
0.01995	7
0.02005	6
0.02015	5
0.02025	2
0.02035	3
0.02045	6
0.02055	4
0.02065	8
0.02075	2
0.02085	4
0.02095	2
0.02105	7
0.02115	4
0.02125	5
0.02135	7
0.02145	3
0.02155	5
0.02165	4
0.02175	5
0.02185	5
0.02195	205155
0.02205	5
0.02215	386258
0.02225	2
0.02235	5
0.02245	3
0.02255	6
0.02265	3
0.02275	2
0.02285	8
0.02295	2
0.02305	5
0.02315	3
0.02325	3
0.02335	3
0.02345	5
0.02355	2
0.02365	6
0.02375	3
0.02385	7
0.02395	4
0.02405	2
0.02415	5
0.02425	2
0.02435	5
0.02445	4
0.02455	5
0.02465	5
0.02475	8
0.02485	33666
0.02495	65916
0.02505	2
0.02515	567
0.02525	4
0.02535	7
0.02545	20077
0.02555	6
0.02565	9
0.02575	3
0.02585	3
0.02595	4
0.02605	1
0.02615	3
0.02625	0
0.02635	0
0.02645	0
0.02655	1
0.02665	5
0.02675	3
0.02685	3
0.02695	6
0.02705	2
0.02715	0
0.02725	1
0.02735	4
0.02745	3
0.02755	2
0.02765	4
0.02775	5
0.02785	6
0.02795	3
0.02805	0
0.02815	3
0.02825	3
0.02835	3
0.02845	1
0.02855	4
0.02865	3
0.02875	1
0.02885	1
0.02895	2
0.02905	0
0.02915	1
0.02925	1
0.02935	2
0.02945	4
0.02955	1
0.02965	0
0.02975	2
0.02985	2
0.02995	0
0.03005	2
0.03015	4
0.03025	1
0.03035	3
0.03045	3
0.03055	1
0.03065	1
0.03075	5
0.03085	2
0.03095	1
0.03105	3
0.03115	1
0.03125	2
0.03135	1
0.03145	3
0.03155	1
0.03165	4
0.03175	2
0.03185	3
0.03195	2
0.03205	1
0.03215	0
0.03225	3
0.03235	0
0.03245	1
0.03255	2
0.03265	3
0.03275	0
0.03285	0
0.03295	0
0.03305	0
0.03315	0
0.03325	0
0.03335	0
0.03345	1
0.03355	1
0.03365	1
0.03375	0
0.03385	0
0.03395	0
0.03405	0
0.03415	0
0.03425	0
0.03435	0
0.03445	0
0.03455	3
0.03465	1
0.03475	0
0.03485	0
0.03495	0
0.03505	0
0.03515	0
0.03525	0
0.03535	0
0.03545	2
0.03555	0
0.03565	0
0.03575	0
0.03585	0
0.03595	1
0.03605	0
0.03615	1
0.03625	0
0.03635	1
0.03645	1
0.03655	0
0.03665	0
0.03675	0
0.03685	1
0.03695	0
0.03705	0
0.03715	1
0.03725	0
0.03735	2
0.03745	0
0.03755	0
0.03765	0
0.03775	0
0.03785	0
0.03795	0
0.03805	1
0.03815	0
0.03825	1
0.03835	0
0.03845	0
0.03855	0
0.03865	1
0.03875	0
0.03885	1
0.03895	0
0.03905	0
0.03915	0
0.03925	1
0.03935	0
0.03945	1
0.03955	1
0.03965	0
0.03975	0
0.03985	0
0.03995	2
0.04005	1
0.04015	0
0.04025	0
0.04035	0
0.04045	1
0.04055	0
0.04065	0
0.04075	1
0.04085	0
0.04095	1
0.04105	0
0.04115	1
0.04125	0
0.04135	0
0.04145	0
0.04155	0
0.04165	1
0.04175	0
0.04185	1
0.04195	0
0.04205	0
0.04215	0
0.04225	1
0.04235	0
0.04245	0
0.04255	0
0.04265	0
0.04275	1
0.04285	0
0.04295	0
0.04305	0
0.04315	0
0.04325	0
0.04335	0
0.04345	0
0.04355	0
0.04365	1
0.04375	0
0.04385	0
0.04395	0
0.04405	0
0.04415	0
0.04425	0
0.04435	0
0.04445	0
0.04455	1
0.04465	0
0.04475	0
0.04485	0
0.04495	0
0.04505	0
0.04515	1
0.04525	0
0.04535	0
0.04545	0
0.04555	0
0.04565	0
0.04575	2
0.04585	0
0.04595	0
0.04605	1
0.04615	0
0.04625	0
0.04635	1
0.04645	1
0.04655	0
0.04665	0
0.04675	1
0.04685	1
0.04695	1
0.04705	0
0.04715	0
0.04725	0
0.04735	1
0.04745	2
0.04755	0
0.04765	0
0.04775	0
0.04785	0
0.04795	0
0.04805	0
0.04815	0
0.04825	0
0.04835	0
0.04845	0
0.04855	0
0.04865	0
0.04875	0
0.04885	0
0.04895	0
0.04905	0
0.04915	0
0.04925	1
0.04935	0
0.04945	0
0.04955	0
0.04965	1
0.04975	0
0.04985	0
0.04995	0
0.05005	0
0.05015	0
0.05025	0
0.05035	0
0.05045	0
0.05055	0
0.05065	1
0.05075	0
0.05085	0
0.05095	0
0.05105	0
0.05115	0
0.05125	0
0.05135	0
0.05145	0
0.05155	0
0.05165	0
0.05175	0
0.05185	0
0.05195	0
0.05205	0
0.05215	0
0.05225	0
0.05235	1
0.05245	0
0.05255	0
0.05265	0
0.05275	0
0.05285	0
0.05295	0
0.05305	0
0.05315	0
0.05325	0
0.05335	0
0.05345	0
0.05355	0
0.05365	0
0.05375	0
0.05385	0
0.05395	0
0.05405	0
0.05415	0
0.05425	0
0.05435	0
0.05445	0
0.05455	0
0.05465	0
0.05475	0
0.05485	0
0.05495	0
0.05505	0
0.05515	0
0.05525	0
0.05535	0
0.05545	0
0.05555	0
0.05565	0
0.05575	0
0.05585	0
0.05595	0
0.05605	0
0.05615	0
0.05625	0
0.05635	0
0.05645	0
0.05655	0
0.05665	0
0.05675	0
0.05685	0
0.05695	0
0.05705	0
0.05715	0
0.05725	0
0.05735	0
0.05745	0
0.05755	0
0.05765	0
0.05775	0
0.05785	0
0.05795	0
0.05805	0
0.05815	0
0.05825	0
0.05835	0
0.05845	0
0.05855	0
0.05865	0
0.05875	0
0.05885	0
0.05895	0
0.05905	0
0.05915	0
0.05925	0
0.05935	0
0.05945	0
0.05955	0
0.05965	0
0.05975	0
0.05985	0
0.05995	0
0.06005	0
0.06015	0
0.06025	0
0.06035	0
0.06045	0
0.06055	0
0.06065	0
0.06075	0
0.06085	0
0.06095	0
0.06105	0
0.06115	0
0.06125	0
0.06135	0
0.06145	0
0.06155	0
0.06165	0
0.06175	0
0.06185	0
0.06195	0
0.06205	0
0.06215	0
0.06225	0
0.06235	0
0.06245	0
0.06255	0
0.06265	0
0.06275	0
0.06285	0
0.06295	0
0.06305	0
0.06315	0
0.06325	0
0.06335	0
0.06345	0
0.06355	0
0.06365	0
0.06375	0
0.06385	0
0.06395	0
0.06405	0
0.06415	0
0.06425	0
0.06435	0
0.06445	0
0.06455	0
0.06465	0
0.06475	0
0.06485	0
0.06495	0
0.06505	0
0.06515	0
0.06525	0
0.06535	0
0.06545	0
0.06555	0
0.06565	0
0.06575	0
0.06585	0
0.06595	0
0.06605	0
0.06615	0
0.06625	0
0.06635	0
0.06645	0
0.06655	0
0.06665	0
0.06675	0
0.06685	0
0.06695	0
0.06705	0
0.06715	0
0.06725	0
0.06735	0
0.06745	0
0.06755	0
0.06765	0
0.06775	0
0.06785	0
0.06795	0
0.06805	0
0.06815	0
0.06825	0
0.06835	0
0.06845	0
0.06855	0
0.06865	0
0.06875	0
0.06885	0
0.06895	0
0.06905	0
0.06915	0
0.06925	0
0.06935	0
0.06945	0
0.06955	0
0.06965	0
0.06975	0
0.06985	0
0.06995	0
0.07005	0
0.07015	0
0.07025	0
0.07035	0
0.07045	0
0.07055	0
0.07065	0
0.07075	0
0.07085	0
0.07095	0
0.07105	0
0.07115	0
0.07125	0
0.07135	0
0.07145	0
0.07155	0
0.07165	0
0.07175	0
0.07185	0
0.07195	0
0.07205	0
0.07215	0
0.07225	0
0.07235	0
0.07245	0
0.07255	0
0.07265	0
0.07275	0
0.07285	0
0.07295	0
0.07305	0
0.07315	0
0.07325	0
0.07335	0
0.07345	0
0.07355	0
0.07365	0
0.07375	0
0.07385	0
0.07395	0
0.07405	0
0.07415	0
0.07425	0
0.07435	0
0.07445	0
0.07455	0
0.07465	0
0.07475	0
0.07485	0
0.07495	0
0.07505	0
0.07515	0
0.07525	0
0.07535	0
0.07545	0
0.07555	0
0.07565	0
0.07575	0
0.07585	0
0.07595	0
0.07605	0
0.07615	0
0.07625	0
0.07635	0
0.07645	0
0.07655	0
0.07665	0
0.07675	0
0.07685	0
0.07695	0
0.07705	0
0.07715	0
0.07725	0
0.07735	0
0.07745	0
0.07755	0
0.07765	0
0.07775	0
0.07785	0
0.07795	0
0.07805	0
0.07815	0
0.07825	0
0.07835	0
0.07845	0
0.07855	0
0.07865	0
0.07875	0
0.07885	0
0.07895	0
0.07905	0
0.07915	0
0.07925	0
0.07935	0
0.07945	0
0.07955	0
0.07965	0
0.07975	0
0.07985	0
0.07995	0
0.08005	0
0.08015	0
0.08025	0
0.08035	0
0.08045	0
0.08055	0
0.08065	0
0.08075	0
0.08085	0
0.08095	0
0.08105	0
0.08115	0
0.08125	0
0.08135	0
0.08145	0
0.08155	0
0.08165	0
0.08175	0
0.08185	0
0.08195	0
0.08205	0
0.08215	0
0.08225	0
0.08235	0
0.08245	0
0.08255	0
0.08265	0
0.08275	0
0.08285	0
0.08295	0
0.08305	0
0.08315	0
0.08325	0
0.08335	0
0.08345	0
0.08355	0
0.08365	0
0.08375	0
0.08385	0
0.08395	0
0.08405	0
0.08415	0
0.08425	0
0.08435	0
0.08445	0
0.08455	0
0.08465	0
0.08475	0
0.08485	0
0.08495	0
0.08505	0
0.08515	0
0.08525	0
0.08535	0
0.08545	0
0.08555	0
0.08565	0
0.08575	0
0.08585	0
0.08595	0
0.08605	0
0.08615	0
0.08625	0
0.08635	0
0.08645	0
0.08655	0
0.08665	0
0.08675	0
0.08685	0
0.08695	0
0.08705	0
0.08715	0
0.08725	0
0.08735	0
0.08745	0
0.08755	0
0.08765	0
0.08775	0
0.08785	0
0.08795	0
0.08805	0
0.08815	0
0.08825	0
0.08835	0
0.08845	0
0.08855	0
0.08865	0
0.08875	0
0.08885	0
0.08895	0
0.08905	0
0.08915	0
0.08925	0
0.08935	0
0.08945	0
0.08955	0
0.08965	0
0.08975	0
0.08985	0
0.08995	0
0.09005	0
0.09015	0
0.09025	0
0.09035	0
0.09045	0
0.09055	0
0.09065	0
0.09075	0
0.09085	0
0.09095	0
0.09105	0
0.09115	0
0.09125	0
0.09135	0
0.09145	0
0.09155	0
0.09165	0
0.09175	0
0.09185	0
0.09195	0
0.09205	0
0.09215	0
0.09225	0
0.09235	0
0.09245	0
0.09255	0
0.09265	0
0.09275	0
0.09285	0
0.09295	0
0.09305	0
0.09315	0
0.09325	0
0.09335	0
0.09345	0
0.09355	0
0.09365	0
0.09375	0
0.09385	0
0.09395	0
0.09405	0
0.09415	0
0.09425	0
0.09435	0
0.09445	0
0.09455	0
0.09465	0
0.09475	0
0.09485	0
0.09495	0
0.09505	0
0.09515	0
0.09525	0
0.09535	0
0.09545	0
0.09555	0
0.09565	0
0.09575	0
0.09585	0
0.09595	0
0.09605	0
0.09615	0
0.09625	0
0.09635	0
0.09645	0
0.09655	0
0.09665	0
0.09675	0
0.09685	0
0.09695	0
0.09705	0
0.09715	0
0.09725	0
0.09735	0
0.09745	0
0.09755	0
0.09765	0
0.09775	0
0.09785	0
0.09795	0
0.09805	0
0.09815	0
0.09825	0
0.09835	0
0.09845	0
0.09855	0
0.09865	0
0.09875	0
0.09885	0
0.09895	0
0.09905	0
0.09915	0
0.09925	0
0.09935	0
0.09945	0
0.09955	0
0.09965	0
0.09975	0
0.09985	0
